Wavelength,Transmission
6549.0,0.000102
6550.0,0.000107
6551.0,0.000112
6552.0,0.000117
6553.0,0.000121
6554.0,0.000126
6555.0,0.000131
6556.0,0.000135
6557.0,0.00014
6558.0,0.000144
6559.0,0.000149
6560.0,0.000153
6561.0,0.000157
6562.0,0.000161
6563.0,0.000165
6564.0,0.00017
6565.0,0.000174
6566.0,0.000178
6567.0,0.000183
6568.0,0.000188
6569.0,0.000193
6570.0,0.000198
6571.0,0.000204
6572.0,0.00021
6573.0,0.000216
6574.0,0.000223
6575.0,0.00023
6576.0,0.000238
6577.0,0.000247
6578.0,0.000256
6579.0,0.000265
6580.0,0.000275
6581.0,0.000286
6582.0,0.000297
6583.0,0.000308
6584.0,0.00032
6585.0,0.000333
6586.0,0.000345
6587.0,0.000358
6588.0,0.000371
6589.0,0.000384
6590.0,0.000397
6591.0,0.00041
6592.0,0.000423
6593.0,0.000435
6594.0,0.000448
6595.0,0.00046
6596.0,0.000472
6597.0,0.000484
6598.0,0.000496
6599.0,0.000508
6600.0,0.000519
6601.0,0.00053
6602.0,0.000541
6603.0,0.000552
6604.0,0.000563
6605.0,0.000575
6606.0,0.000587
6607.0,0.000599
6608.0,0.000612
6609.0,0.000626
6610.0,0.000641
6611.0,0.000657
6612.0,0.000674
6613.0,0.000692
6614.0,0.00071
6615.0,0.00073
6616.0,0.00075
6617.0,0.000772
6618.0,0.000793
6619.0,0.000816
6620.0,0.000839
6621.0,0.000863
6622.0,0.000887
6623.0,0.000911
6624.0,0.000937
6625.0,0.000962
6626.0,0.000988
6627.0,0.001015
6628.0,0.001043
6629.0,0.001071
6630.0,0.001099
6631.0,0.001128
6632.0,0.001158
6633.0,0.001188
6634.0,0.001219
6635.0,0.00125
6636.0,0.001283
6637.0,0.001316
6638.0,0.001349
6639.0,0.001384
6640.0,0.001419
6641.0,0.001455
6642.0,0.001492
6643.0,0.00153
6644.0,0.001568
6645.0,0.001608
6646.0,0.001648
6647.0,0.001689
6648.0,0.00173
6649.0,0.001773
6650.0,0.001816
6651.0,0.00186
6652.0,0.001905
6653.0,0.001951
6654.0,0.001998
6655.0,0.002045
6656.0,0.002095
6657.0,0.002145
6658.0,0.002196
6659.0,0.002249
6660.0,0.002304
6661.0,0.00236
6662.0,0.002418
6663.0,0.002477
6664.0,0.002538
6665.0,0.002601
6666.0,0.002666
6667.0,0.002733
6668.0,0.002801
6669.0,0.002872
6670.0,0.002945
6671.0,0.00302
6672.0,0.003097
6673.0,0.003176
6674.0,0.003258
6675.0,0.003341
6676.0,0.003426
6677.0,0.003513
6678.0,0.003601
6679.0,0.003692
6680.0,0.003784
6681.0,0.003878
6682.0,0.003973
6683.0,0.004071
6684.0,0.00417
6685.0,0.004271
6686.0,0.004374
6687.0,0.004479
6688.0,0.004586
6689.0,0.004695
6690.0,0.004807
6691.0,0.004921
6692.0,0.005037
6693.0,0.005156
6694.0,0.005278
6695.0,0.005403
6696.0,0.00553
6697.0,0.005661
6698.0,0.005795
6699.0,0.005932
6700.0,0.006073
6701.0,0.006218
6702.0,0.006366
6703.0,0.006518
6704.0,0.006674
6705.0,0.006833
6706.0,0.006997
6707.0,0.007164
6708.0,0.007335
6709.0,0.007511
6710.0,0.00769
6711.0,0.007873
6712.0,0.008061
6713.0,0.008252
6714.0,0.008448
6715.0,0.008649
6716.0,0.008854
6717.0,0.009063
6718.0,0.009277
6719.0,0.009496
6720.0,0.00972
6721.0,0.009949
6722.0,0.010182
6723.0,0.010421
6724.0,0.010666
6725.0,0.010915
6726.0,0.011171
6727.0,0.011432
6728.0,0.011698
6729.0,0.011971
6730.0,0.01225
6731.0,0.012535
6732.0,0.012826
6733.0,0.013124
6734.0,0.013429
6735.0,0.013741
6736.0,0.01406
6737.0,0.014386
6738.0,0.014719
6739.0,0.015061
6740.0,0.01541
6741.0,0.015767
6742.0,0.016133
6743.0,0.016507
6744.0,0.016889
6745.0,0.017279
6746.0,0.017678
6747.0,0.018086
6748.0,0.018502
6749.0,0.018926
6750.0,0.01936
6751.0,0.019802
6752.0,0.020254
6753.0,0.020715
6754.0,0.021185
6755.0,0.021665
6756.0,0.022155
6757.0,0.022655
6758.0,0.023166
6759.0,0.023688
6760.0,0.02422
6761.0,0.024764
6762.0,0.025319
6763.0,0.025886
6764.0,0.026465
6765.0,0.027056
6766.0,0.02766
6767.0,0.028277
6768.0,0.028908
6769.0,0.029552
6770.0,0.03021
6771.0,0.030882
6772.0,0.031569
6773.0,0.03227
6774.0,0.032986
6775.0,0.033717
6776.0,0.034463
6777.0,0.035224
6778.0,0.036
6779.0,0.036792
6780.0,0.0376
6781.0,0.038424
6782.0,0.039263
6783.0,0.040119
6784.0,0.040991
6785.0,0.041879
6786.0,0.042784
6787.0,0.043705
6788.0,0.044643
6789.0,0.045598
6790.0,0.04657
6791.0,0.047559
6792.0,0.048566
6793.0,0.04959
6794.0,0.050634
6795.0,0.051698
6796.0,0.052781
6797.0,0.053886
6798.0,0.055011
6799.0,0.056159
6800.0,0.05733
6801.0,0.058524
6802.0,0.059741
6803.0,0.060982
6804.0,0.062246
6805.0,0.063534
6806.0,0.064846
6807.0,0.066181
6808.0,0.06754
6809.0,0.068923
6810.0,0.07033
6811.0,0.071761
6812.0,0.073216
6813.0,0.074694
6814.0,0.076196
6815.0,0.077722
6816.0,0.07927
6817.0,0.080841
6818.0,0.082435
6819.0,0.084051
6820.0,0.08569
6821.0,0.087351
6822.0,0.089035
6823.0,0.090744
6824.0,0.092479
6825.0,0.094241
6826.0,0.096031
6827.0,0.097851
6828.0,0.099702
6829.0,0.101584
6830.0,0.1035
6831.0,0.10545
6832.0,0.107433
6833.0,0.10945
6834.0,0.111498
6835.0,0.113576
6836.0,0.115685
6837.0,0.117822
6838.0,0.119988
6839.0,0.122181
6840.0,0.1244
6841.0,0.126645
6842.0,0.128914
6843.0,0.13121
6844.0,0.133531
6845.0,0.135878
6846.0,0.13825
6847.0,0.140648
6848.0,0.143073
6849.0,0.145523
6850.0,0.148
6851.0,0.150503
6852.0,0.153033
6853.0,0.15559
6854.0,0.158175
6855.0,0.160789
6856.0,0.163431
6857.0,0.166103
6858.0,0.168804
6859.0,0.171537
6860.0,0.1743
6861.0,0.177095
6862.0,0.179921
6863.0,0.182777
6864.0,0.185664
6865.0,0.188581
6866.0,0.191527
6867.0,0.194503
6868.0,0.197507
6869.0,0.20054
6870.0,0.2036
6871.0,0.206688
6872.0,0.209803
6873.0,0.212946
6874.0,0.216116
6875.0,0.219313
6876.0,0.222537
6877.0,0.225788
6878.0,0.229065
6879.0,0.232369
6880.0,0.2357
6881.0,0.239057
6882.0,0.24244
6883.0,0.245849
6884.0,0.249283
6885.0,0.252742
6886.0,0.256225
6887.0,0.259733
6888.0,0.263265
6889.0,0.266821
6890.0,0.2704
6891.0,0.274002
6892.0,0.277626
6893.0,0.281273
6894.0,0.284942
6895.0,0.288632
6896.0,0.292344
6897.0,0.296077
6898.0,0.299831
6899.0,0.303605
6900.0,0.3074
6901.0,0.311214
6902.0,0.315047
6903.0,0.318896
6904.0,0.322762
6905.0,0.326641
6906.0,0.330533
6907.0,0.334436
6908.0,0.33835
6909.0,0.342271
6910.0,0.3462
6911.0,0.350134
6912.0,0.354074
6913.0,0.358017
6914.0,0.361965
6915.0,0.365916
6916.0,0.369869
6917.0,0.373825
6918.0,0.377783
6919.0,0.381741
6920.0,0.3857
6921.0,0.389659
6922.0,0.393619
6923.0,0.397582
6924.0,0.401549
6925.0,0.40552
6926.0,0.409498
6927.0,0.413484
6928.0,0.417479
6929.0,0.421484
6930.0,0.4255
6931.0,0.429529
6932.0,0.433568
6933.0,0.437616
6934.0,0.441669
6935.0,0.445727
6936.0,0.449787
6937.0,0.453846
6938.0,0.457903
6939.0,0.461955
6940.0,0.466
6941.0,0.470036
6942.0,0.474063
6943.0,0.47808
6944.0,0.482086
6945.0,0.486083
6946.0,0.490069
6947.0,0.494044
6948.0,0.498007
6949.0,0.50196
6950.0,0.5059
6951.0,0.509829
6952.0,0.513745
6953.0,0.517651
6954.0,0.521545
6955.0,0.525429
6956.0,0.529302
6957.0,0.533166
6958.0,0.53702
6959.0,0.540864
6960.0,0.5447
6961.0,0.548527
6962.0,0.552344
6963.0,0.55615
6964.0,0.559945
6965.0,0.563726
6966.0,0.567494
6967.0,0.571246
6968.0,0.574982
6969.0,0.5787
6970.0,0.5824
6971.0,0.58608
6972.0,0.58974
6973.0,0.593379
6974.0,0.596996
6975.0,0.600591
6976.0,0.604162
6977.0,0.607709
6978.0,0.611232
6979.0,0.614729
6980.0,0.6182
6981.0,0.621644
6982.0,0.625063
6983.0,0.628456
6984.0,0.631826
6985.0,0.635173
6986.0,0.638498
6987.0,0.641802
6988.0,0.645087
6989.0,0.648352
6990.0,0.6516
6991.0,0.654831
6992.0,0.658044
6993.0,0.661238
6994.0,0.664413
6995.0,0.667567
6996.0,0.6707
6997.0,0.673811
6998.0,0.676898
6999.0,0.679962
7000.0,0.683
7001.0,0.686013
7002.0,0.689001
7003.0,0.691964
7004.0,0.694904
7005.0,0.697822
7006.0,0.700717
7007.0,0.703592
7008.0,0.706447
7009.0,0.709283
7010.0,0.7121
7011.0,0.714899
7012.0,0.717681
7013.0,0.720443
7014.0,0.723186
7015.0,0.725909
7016.0,0.728611
7017.0,0.731292
7018.0,0.733951
7019.0,0.736587
7020.0,0.7392
7021.0,0.741789
7022.0,0.744355
7023.0,0.746898
7024.0,0.749418
7025.0,0.751917
7026.0,0.754394
7027.0,0.756851
7028.0,0.759287
7029.0,0.761703
7030.0,0.7641
7031.0,0.766478
7032.0,0.768836
7033.0,0.771174
7034.0,0.77349
7035.0,0.775785
7036.0,0.778056
7037.0,0.780305
7038.0,0.782529
7039.0,0.784727
7040.0,0.7869
7041.0,0.789046
7042.0,0.791167
7043.0,0.793263
7044.0,0.795334
7045.0,0.797382
7046.0,0.799407
7047.0,0.801411
7048.0,0.803394
7049.0,0.805357
7050.0,0.8073
7051.0,0.809225
7052.0,0.811132
7053.0,0.813022
7054.0,0.814895
7055.0,0.816751
7056.0,0.818591
7057.0,0.820416
7058.0,0.822225
7059.0,0.82402
7060.0,0.8258
7061.0,0.827567
7062.0,0.829318
7063.0,0.831055
7064.0,0.832775
7065.0,0.834477
7066.0,0.836162
7067.0,0.837827
7068.0,0.839472
7069.0,0.841097
7070.0,0.8427
7071.0,0.84428
7072.0,0.845839
7073.0,0.847377
7074.0,0.848893
7075.0,0.85039
7076.0,0.851868
7077.0,0.853327
7078.0,0.854768
7079.0,0.856192
7080.0,0.8576
7081.0,0.858992
7082.0,0.860369
7083.0,0.861733
7084.0,0.863084
7085.0,0.864424
7086.0,0.865754
7087.0,0.867076
7088.0,0.86839
7089.0,0.869698
7090.0,0.871
7091.0,0.872298
7092.0,0.873591
7093.0,0.874877
7094.0,0.876156
7095.0,0.877426
7096.0,0.878686
7097.0,0.879935
7098.0,0.881171
7099.0,0.882393
7100.0,0.8836
7101.0,0.884791
7102.0,0.885966
7103.0,0.887123
7104.0,0.888262
7105.0,0.889384
7106.0,0.890486
7107.0,0.89157
7108.0,0.892633
7109.0,0.893677
7110.0,0.8947
7111.0,0.895702
7112.0,0.896684
7113.0,0.897648
7114.0,0.898595
7115.0,0.899527
7116.0,0.900444
7117.0,0.901349
7118.0,0.902242
7119.0,0.903125
7120.0,0.904
7121.0,0.904868
7122.0,0.905728
7123.0,0.906582
7124.0,0.90743
7125.0,0.908272
7126.0,0.909108
7127.0,0.909938
7128.0,0.910764
7129.0,0.911584
7130.0,0.9124
7131.0,0.913211
7132.0,0.914017
7133.0,0.914818
7134.0,0.915612
7135.0,0.916398
7136.0,0.917177
7137.0,0.917947
7138.0,0.918709
7139.0,0.91946
7140.0,0.9202
7141.0,0.920929
7142.0,0.921647
7143.0,0.922354
7144.0,0.92305
7145.0,0.923735
7146.0,0.924409
7147.0,0.925072
7148.0,0.925725
7149.0,0.926368
7150.0,0.927
7151.0,0.927622
7152.0,0.928235
7153.0,0.928839
7154.0,0.929435
7155.0,0.930025
7156.0,0.930609
7157.0,0.931187
7158.0,0.931761
7159.0,0.932332
7160.0,0.9329
7161.0,0.933466
7162.0,0.93403
7163.0,0.93459
7164.0,0.935148
7165.0,0.935702
7166.0,0.936252
7167.0,0.936797
7168.0,0.937337
7169.0,0.937871
7170.0,0.9384
7171.0,0.938922
7172.0,0.939437
7173.0,0.939946
7174.0,0.940447
7175.0,0.940942
7176.0,0.941429
7177.0,0.941908
7178.0,0.94238
7179.0,0.942844
7180.0,0.9433
7181.0,0.943748
7182.0,0.944188
7183.0,0.944621
7184.0,0.945048
7185.0,0.945468
7186.0,0.945883
7187.0,0.946294
7188.0,0.946699
7189.0,0.947101
7190.0,0.9475
7191.0,0.947896
7192.0,0.948289
7193.0,0.948678
7194.0,0.949064
7195.0,0.949447
7196.0,0.949826
7197.0,0.950201
7198.0,0.950572
7199.0,0.950938
7200.0,0.9513
7201.0,0.951657
7202.0,0.952009
7203.0,0.952358
7204.0,0.952702
7205.0,0.953043
7206.0,0.95338
7207.0,0.953714
7208.0,0.954045
7209.0,0.954374
7210.0,0.9547
7211.0,0.955024
7212.0,0.955345
7213.0,0.955663
7214.0,0.955975
7215.0,0.956282
7216.0,0.956582
7217.0,0.956875
7218.0,0.95716
7219.0,0.957435
7220.0,0.9577
7221.0,0.957954
7222.0,0.958198
7223.0,0.958433
7224.0,0.958659
7225.0,0.958879
7226.0,0.959092
7227.0,0.959299
7228.0,0.959503
7229.0,0.959702
7230.0,0.9599
7231.0,0.960096
7232.0,0.96029
7233.0,0.960481
7234.0,0.960669
7235.0,0.960853
7236.0,0.961033
7237.0,0.961208
7238.0,0.961378
7239.0,0.961542
7240.0,0.9617
7241.0,0.961851
7242.0,0.961995
7243.0,0.962134
7244.0,0.962267
7245.0,0.962396
7246.0,0.962522
7247.0,0.962644
7248.0,0.962764
7249.0,0.962883
7250.0,0.963
7251.0,0.963117
7252.0,0.963235
7253.0,0.963354
7254.0,0.963475
7255.0,0.963599
7256.0,0.963728
7257.0,0.963861
7258.0,0.964
7259.0,0.964146
7260.0,0.9643
7261.0,0.964462
7262.0,0.96463
7263.0,0.964803
7264.0,0.964979
7265.0,0.965157
7266.0,0.965334
7267.0,0.965509
7268.0,0.965679
7269.0,0.965843
7270.0,0.966
7271.0,0.966147
7272.0,0.966285
7273.0,0.966415
7274.0,0.966535
7275.0,0.966648
7276.0,0.966752
7277.0,0.96685
7278.0,0.96694
7279.0,0.967023
7280.0,0.9671
7281.0,0.967171
7282.0,0.967237
7283.0,0.967299
7284.0,0.967358
7285.0,0.967414
7286.0,0.96747
7287.0,0.967525
7288.0,0.967581
7289.0,0.967639
7290.0,0.9677
7291.0,0.967764
7292.0,0.96783
7293.0,0.967898
7294.0,0.967966
7295.0,0.968032
7296.0,0.968096
7297.0,0.968156
7298.0,0.968211
7299.0,0.968259
7300.0,0.9683
7301.0,0.968333
7302.0,0.968358
7303.0,0.968378
7304.0,0.968394
7305.0,0.968407
7306.0,0.96842
7307.0,0.968434
7308.0,0.968451
7309.0,0.968473
7310.0,0.9685
7311.0,0.968535
7312.0,0.968576
7313.0,0.968625
7314.0,0.968679
7315.0,0.968739
7316.0,0.968804
7317.0,0.968873
7318.0,0.968946
7319.0,0.969021
7320.0,0.9691
7321.0,0.969181
7322.0,0.969263
7323.0,0.969346
7324.0,0.969429
7325.0,0.969512
7326.0,0.969594
7327.0,0.969674
7328.0,0.969752
7329.0,0.969828
7330.0,0.9699
7331.0,0.969968
7332.0,0.970033
7333.0,0.970096
7334.0,0.970156
7335.0,0.970214
7336.0,0.970271
7337.0,0.970328
7338.0,0.970384
7339.0,0.970442
7340.0,0.9705
7341.0,0.97056
7342.0,0.970622
7343.0,0.970686
7344.0,0.970752
7345.0,0.97082
7346.0,0.970891
7347.0,0.970964
7348.0,0.97104
7349.0,0.971119
7350.0,0.9712
7351.0,0.971284
7352.0,0.971371
7353.0,0.97146
7354.0,0.971551
7355.0,0.971642
7356.0,0.971735
7357.0,0.971827
7358.0,0.971919
7359.0,0.97201
7360.0,0.9721
7361.0,0.972188
7362.0,0.972274
7363.0,0.972359
7364.0,0.972442
7365.0,0.972522
7366.0,0.972602
7367.0,0.972679
7368.0,0.972754
7369.0,0.972828
7370.0,0.9729
7371.0,0.97297
7372.0,0.973038
7373.0,0.973105
7374.0,0.973169
7375.0,0.97323
7376.0,0.97329
7377.0,0.973346
7378.0,0.9734
7379.0,0.973452
7380.0,0.9735
7381.0,0.973545
7382.0,0.973589
7383.0,0.973632
7384.0,0.973674
7385.0,0.973719
7386.0,0.973766
7387.0,0.973816
7388.0,0.973871
7389.0,0.973932
7390.0,0.974
7391.0,0.974076
7392.0,0.974159
7393.0,0.974248
7394.0,0.974344
7395.0,0.974445
7396.0,0.97455
7397.0,0.974659
7398.0,0.97477
7399.0,0.974884
7400.0,0.975
7401.0,0.975116
7402.0,0.975233
7403.0,0.975349
7404.0,0.975464
7405.0,0.975578
7406.0,0.975689
7407.0,0.975797
7408.0,0.975902
7409.0,0.976004
7410.0,0.9761
7411.0,0.976192
7412.0,0.976279
7413.0,0.976365
7414.0,0.976449
7415.0,0.976533
7416.0,0.976618
7417.0,0.976706
7418.0,0.976798
7419.0,0.976896
7420.0,0.977
7421.0,0.977112
7422.0,0.97723
7423.0,0.977355
7424.0,0.977484
7425.0,0.977617
7426.0,0.977753
7427.0,0.97789
7428.0,0.978028
7429.0,0.978165
7430.0,0.9783
7431.0,0.978433
7432.0,0.978563
7433.0,0.97869
7434.0,0.978815
7435.0,0.978936
7436.0,0.979055
7437.0,0.979171
7438.0,0.979284
7439.0,0.979393
7440.0,0.9795
7441.0,0.979604
7442.0,0.979704
7443.0,0.979802
7444.0,0.979896
7445.0,0.979988
7446.0,0.980076
7447.0,0.980162
7448.0,0.980244
7449.0,0.980323
7450.0,0.9804
7451.0,0.980474
7452.0,0.980545
7453.0,0.980615
7454.0,0.980683
7455.0,0.980751
7456.0,0.980818
7457.0,0.980887
7458.0,0.980956
7459.0,0.981027
7460.0,0.9811
7461.0,0.981176
7462.0,0.981254
7463.0,0.981334
7464.0,0.981415
7465.0,0.981497
7466.0,0.981579
7467.0,0.981661
7468.0,0.981742
7469.0,0.981822
7470.0,0.9819
7471.0,0.981976
7472.0,0.98205
7473.0,0.982122
7474.0,0.982192
7475.0,0.982262
7476.0,0.98233
7477.0,0.982398
7478.0,0.982465
7479.0,0.982532
7480.0,0.9826
7481.0,0.982668
7482.0,0.982736
7483.0,0.982803
7484.0,0.982868
7485.0,0.982932
7486.0,0.982993
7487.0,0.983051
7488.0,0.983105
7489.0,0.983155
7490.0,0.9832
7491.0,0.983239
7492.0,0.983274
7493.0,0.983303
7494.0,0.983327
7495.0,0.983348
7496.0,0.983365
7497.0,0.983378
7498.0,0.983388
7499.0,0.983395
7500.0,0.9834
7501.0,0.983403
7502.0,0.983403
7503.0,0.983401
7504.0,0.983397
7505.0,0.983389
7506.0,0.983378
7507.0,0.983364
7508.0,0.983347
7509.0,0.983325
7510.0,0.9833
7511.0,0.983271
7512.0,0.983238
7513.0,0.983201
7514.0,0.983162
7515.0,0.983121
7516.0,0.983079
7517.0,0.983034
7518.0,0.98299
7519.0,0.982945
7520.0,0.9829
7521.0,0.982856
7522.0,0.982813
7523.0,0.98277
7524.0,0.982729
7525.0,0.982688
7526.0,0.982648
7527.0,0.98261
7528.0,0.982572
7529.0,0.982535
7530.0,0.9825
7531.0,0.982466
7532.0,0.982431
7533.0,0.982395
7534.0,0.982356
7535.0,0.982314
7536.0,0.982266
7537.0,0.982212
7538.0,0.982151
7539.0,0.982081
7540.0,0.982
7541.0,0.981909
7542.0,0.981808
7543.0,0.9817
7544.0,0.981586
7545.0,0.981469
7546.0,0.98135
7547.0,0.981232
7548.0,0.981116
7549.0,0.981005
7550.0,0.9809
7551.0,0.980803
7552.0,0.980713
7553.0,0.980628
7554.0,0.980549
7555.0,0.980473
7556.0,0.980399
7557.0,0.980326
7558.0,0.980252
7559.0,0.980178
7560.0,0.9801
7561.0,0.980019
7562.0,0.979933
7563.0,0.979844
7564.0,0.979751
7565.0,0.979653
7566.0,0.979551
7567.0,0.979445
7568.0,0.979334
7569.0,0.979219
7570.0,0.9791
7571.0,0.978976
7572.0,0.978849
7573.0,0.978719
7574.0,0.978587
7575.0,0.978454
7576.0,0.97832
7577.0,0.978187
7578.0,0.978056
7579.0,0.977926
7580.0,0.9778
7581.0,0.977678
7582.0,0.977559
7583.0,0.977443
7584.0,0.977331
7585.0,0.977221
7586.0,0.977113
7587.0,0.977008
7588.0,0.976904
7589.0,0.976801
7590.0,0.9767
7591.0,0.976599
7592.0,0.976499
7593.0,0.976397
7594.0,0.976294
7595.0,0.976189
7596.0,0.976081
7597.0,0.975968
7598.0,0.975851
7599.0,0.975729
7600.0,0.9756
7601.0,0.975464
7602.0,0.975323
7603.0,0.975176
7604.0,0.975026
7605.0,0.974873
7606.0,0.974718
7607.0,0.974562
7608.0,0.974406
7609.0,0.974252
7610.0,0.9741
7611.0,0.973951
7612.0,0.973805
7613.0,0.973662
7614.0,0.973521
7615.0,0.973382
7616.0,0.973244
7617.0,0.973108
7618.0,0.972972
7619.0,0.972836
7620.0,0.9727
7621.0,0.972564
7622.0,0.972428
7623.0,0.972294
7624.0,0.972163
7625.0,0.972036
7626.0,0.971914
7627.0,0.971798
7628.0,0.97169
7629.0,0.97159
7630.0,0.9715
7631.0,0.97142
7632.0,0.971349
7633.0,0.971286
7634.0,0.971228
7635.0,0.971174
7636.0,0.971121
7637.0,0.97107
7638.0,0.971017
7639.0,0.970961
7640.0,0.9709
7641.0,0.970833
7642.0,0.97076
7643.0,0.970681
7644.0,0.970597
7645.0,0.970507
7646.0,0.970414
7647.0,0.970316
7648.0,0.970214
7649.0,0.970108
7650.0,0.97
7651.0,0.969889
7652.0,0.969776
7653.0,0.969662
7654.0,0.969548
7655.0,0.969434
7656.0,0.969322
7657.0,0.969211
7658.0,0.969104
7659.0,0.969
7660.0,0.9689
7661.0,0.968805
7662.0,0.968716
7663.0,0.968632
7664.0,0.968553
7665.0,0.96848
7666.0,0.968413
7667.0,0.968351
7668.0,0.968295
7669.0,0.968244
7670.0,0.9682
7671.0,0.968161
7672.0,0.968128
7673.0,0.9681
7674.0,0.968076
7675.0,0.968057
7676.0,0.96804
7677.0,0.968027
7678.0,0.968016
7679.0,0.968007
7680.0,0.968
7681.0,0.967994
7682.0,0.967988
7683.0,0.967982
7684.0,0.967976
7685.0,0.967968
7686.0,0.96796
7687.0,0.967949
7688.0,0.967936
7689.0,0.96792
7690.0,0.9679
7691.0,0.967877
7692.0,0.96785
7693.0,0.967821
7694.0,0.96779
7695.0,0.967757
7696.0,0.967724
7697.0,0.967691
7698.0,0.967659
7699.0,0.967629
7700.0,0.9676
7701.0,0.967574
7702.0,0.967553
7703.0,0.967537
7704.0,0.967528
7705.0,0.967528
7706.0,0.967537
7707.0,0.967557
7708.0,0.96759
7709.0,0.967637
7710.0,0.9677
7711.0,0.967779
7712.0,0.967871
7713.0,0.967975
7714.0,0.968088
7715.0,0.968207
7716.0,0.96833
7717.0,0.968453
7718.0,0.968574
7719.0,0.968691
7720.0,0.9688
7721.0,0.9689
7722.0,0.968991
7723.0,0.969073
7724.0,0.969149
7725.0,0.969218
7726.0,0.969281
7727.0,0.96934
7728.0,0.969396
7729.0,0.969449
7730.0,0.9695
7731.0,0.96955
7732.0,0.969601
7733.0,0.969654
7734.0,0.969711
7735.0,0.969772
7736.0,0.969839
7737.0,0.969915
7738.0,0.969999
7739.0,0.970093
7740.0,0.9702
7741.0,0.970319
7742.0,0.97045
7743.0,0.970591
7744.0,0.970739
7745.0,0.970894
7746.0,0.971054
7747.0,0.971216
7748.0,0.971379
7749.0,0.971541
7750.0,0.9717
7751.0,0.971855
7752.0,0.972006
7753.0,0.972151
7754.0,0.972291
7755.0,0.972426
7756.0,0.972554
7757.0,0.972676
7758.0,0.972791
7759.0,0.972899
7760.0,0.973
7761.0,0.973093
7762.0,0.973181
7763.0,0.973265
7764.0,0.973346
7765.0,0.973428
7766.0,0.973511
7767.0,0.973598
7768.0,0.973691
7769.0,0.973791
7770.0,0.9739
7771.0,0.97402
7772.0,0.974151
7773.0,0.974292
7774.0,0.974442
7775.0,0.9746
7776.0,0.974767
7777.0,0.974941
7778.0,0.975121
7779.0,0.975308
7780.0,0.9755
7781.0,0.975697
7782.0,0.975897
7783.0,0.9761
7784.0,0.976304
7785.0,0.976509
7786.0,0.976713
7787.0,0.976915
7788.0,0.977114
7789.0,0.97731
7790.0,0.9775
7791.0,0.977684
7792.0,0.977863
7793.0,0.978035
7794.0,0.978202
7795.0,0.978364
7796.0,0.978521
7797.0,0.978672
7798.0,0.978819
7799.0,0.978962
7800.0,0.9791
7801.0,0.979234
7802.0,0.979365
7803.0,0.979494
7804.0,0.979621
7805.0,0.979747
7806.0,0.979874
7807.0,0.980002
7808.0,0.980131
7809.0,0.980264
7810.0,0.9804
7811.0,0.98054
7812.0,0.980685
7813.0,0.980832
7814.0,0.980982
7815.0,0.981134
7816.0,0.981288
7817.0,0.981441
7818.0,0.981595
